=~=~=~=~=~=~=~=~=~=~=~= PuTTY log 2023.07.04 12:01:23 =~=~=~=~=~=~=~=~=~=~=~=
BME280 test
-- Default Test --
Time;RH;Temp
222;30.52;23.56
325;30.57;23.56
428;30.63;23.56
531;30.70;23.57
634;30.75;23.57
737;30.82;23.57
840;30.87;23.57
943;30.92;23.57
1046;30.98;23.57
1149;31.04;23.57
1253;31.09;23.57
1356;31.15;23.57
1459;31.21;23.57
1562;31.26;23.57
1665;31.32;23.57
1768;31.43;23.58
1871;31.49;23.57
1974;31.54;23.57
2077;31.59;23.57
2180;31.64;23.57
2283;31.70;23.57
2386;31.76;23.57
2490;31.81;23.57
2593;31.87;23.57
2696;31.91;23.57
2799;31.97;23.57
2902;32.02;23.57
3005;32.07;23.58
3108;32.14;23.58
3211;32.20;23.57
3314;32.30;23.58
3417;32.35;23.58
3520;32.41;23.57
3623;32.46;23.57
3727;32.51;23.57
3830;32.57;23.57
3933;32.61;23.58
4036;32.67;23.58
4139;32.72;23.57
4242;32.77;23.58
4345;32.83;23.58
4448;32.87;23.57
4551;32.84;23.57
4654;32.77;23.57
4757;32.74;23.57
4860;32.72;23.58
4964;32.68;23.57
5067;32.65;23.57
5170;32.62;23.57
5273;32.57;23.57
5376;32.49;23.57
5479;32.39;23.57
5582;32.26;23.57
5685;32.14;23.57
5788;31.98;23.57
5891;31.80;23.57
5994;31.64;23.57
6097;31.49;23.57
6200;31.30;23.57
6303;31.12;23.57
6406;30.92;23.57
6509;30.77;23.57
6612;30.34;23.57
6716;30.14;23.57
6819;29.94;23.57
6922;29.74;23.57
7025;29.54;23.57
7128;29.34;23.57
7231;29.12;23.57
7334;28.93;23.57
7437;28.74;23.57
7540;28.57;23.57
7643;28.39;23.57
7746;28.23;23.57
7849;28.04;23.57
7953;27.86;23.57
8056;27.68;23.57
8159;27.38;23.57
8262;27.23;23.57
8365;27.07;23.57
8468;26.90;23.57
8571;26.76;23.57
8674;26.59;23.57
8777;26.44;23.57
8880;26.29;23.57
8983;26.15;23.57
9086;26.01;23.57
9190;25.90;23.57
1
9293;25.76;23.57
9396;25.65;23.57
9499;25.53;23.57
9602;25.42;23.57
9705;25.33;23.57
9808;25.09;23.57
9911;24.96;23.57
2
10014;24.85;23.57
10117;24.75;23.57
10220;24.66;23.57
10323;24.56;23.57
10427;24.47;23.57
10530;24.39;23.57
10633;24.30;23.57
10736;24.20;23.57
10839;24.10;23.57
10942;24.04;23.57
11045;23.95;23.57
11148;23.88;23.57
11251;23.79;23.57
11354;23.64;23.57
11457;23.58;23.57
11560;23.51;23.57
11664;23.45;23.57
11767;23.38;23.57
11870;23.32;23.57
11973;23.26;23.57
12076;23.19;23.57
12179;23.11;23.57
12282;23.06;23.57
12385;23.01;23.57
12488;22.96;23.57
12591;22.90;23.57
12694;22.88;23.57
12797;22.82;23.57
12901;22.78;23.57
13004;22.69;23.57
13107;22.63;23.58
13210;22.60;23.57
13313;22.54;23.57
13416;22.49;23.57
13519;22.44;23.58
13622;22.40;23.57
13725;22.37;23.58
13828;22.34;23.58
13931;22.28;23.58
14034;22.25;23.57
14138;22.19;23.58
14241;22.17;23.57
14344;22.11;23.57
14447;22.05;23.58
14550;21.99;23.57
14653;21.94;23.57
14756;21.92;23.57
14859;21.87;23.58
14962;21.84;23.57
15065;21.82;23.57
15168;21.78;23.58
15271;21.75;23.58
15375;21.72;23.57
15478;21.68;23.57
15581;21.65;23.57
15684;21.60;23.57
15787;21.56;23.57
15890;21.50;23.57
15993;21.48;23.57
16096;21.44;23.57
16199;21.40;23.57
16302;21.35;23.58
16405;21.31;23.58
16508;21.29;23.57
16612;21.24;23.57
16715;21.22;23.58
16818;21.20;23.58
16921;21.17;23.58
17024;21.14;23.58
17127;21.13;23.57
17230;21.11;23.57
17333;21.08;23.58
17436;21.07;23.58
17539;21.05;23.58
17642;21.02;23.58
17745;20.96;23.58
17848;20.92;23.58
17951;20.90;23.57
18054;20.88;23.58
18157;20.88;23.57
18260;20.86;23.58
18364;20.83;23.58
18467;20.81;23.58
18570;20.79;23.58
18673;20.77;23.58
18776;20.76;23.58
18879;20.74;23.58
18982;20.71;23.58
19085;20.70;23.58
19188;20.70;23.58
19291;20.69;23.58
19394;20.64;23.57
19497;20.62;23.58
19601;20.61;23.58
19704;20.59;23.58
19807;20.58;23.57
19910;20.55;23.58
20013;20.53;23.58
20116;20.51;23.58
20219;20.49;23.58
20322;20.49;23.58
20425;20.45;23.58
20528;20.44;23.58
20631;20.43;23.58
20734;20.41;23.58
20838;20.41;23.58
20941;20.37;23.57
21044;20.37;23.57
21147;20.35;23.58
21250;20.33;23.58
21353;20.30;23.58
21456;20.29;23.58
21559;20.28;23.58
21662;20.26;23.58
21765;20.23;23.58
21868;20.20;23.58
21971;20.18;23.57
22075;20.16;23.57
22178;20.16;23.57
22281;20.15;23.57
22384;20.10;23.58
22487;20.10;23.58
22590;20.04;23.58
22693;20.03;23.58
22796;20.02;23.58
22899;20.00;23.58
23002;19.99;23.58
23105;19.97;23.58
23208;19.95;23.58
23312;19.97;23.58
23415;19.97;23.58
23518;19.95;23.58
23621;19.94;23.58
23724;19.93;23.58
23827;19.92;23.58
23930;19.90;23.58
24033;19.89;23.58
24136;19.86;23.58
24239;19.84;23.58
24342;19.82;23.58
24445;19.81;23.58
24549;19.77;23.58
24652;19.76;23.58
24755;19.76;23.58
24858;19.75;23.58
24961;19.74;23.58
25064;19.73;23.58
25167;19.71;23.58
25270;19.71;23.58
25373;19.71;23.58
25476;19.68;23.58
25579;19.68;23.58
25682;19.65;23.58
25786;19.63;23.58
25889;19.62;23.58
25992;19.60;23.58
26095;19.59;23.58
26198;19.57;23.58
26301;19.57;23.58
26404;19.56;23.58
26507;19.55;23.58
26610;19.53;23.58
26713;19.53;23.58
26816;19.51;23.58
26919;19.53;23.58
27023;19.53;23.58
27126;19.53;23.58
27229;19.51;23.58
27332;19.50;23.58
27435;19.49;23.58
27538;19.48;23.58
27641;19.47;23.58
27744;19.46;23.58
27847;19.45;23.58
27950;19.45;23.58
28053;19.43;23.58
28156;19.42;23.58
28260;19.41;23.58
28363;19.40;23.59
28466;19.38;23.58
28569;19.39;23.58
28672;19.38;23.58
28775;19.38;23.58
28878;19.37;23.58
28981;19.33;23.58
29084;19.33;23.58
29187;19.32;23.58
29290;19.30;23.58
29393;19.29;23.58
29496;19.29;23.58
29599;19.30;23.58
29702;19.30;23.58
29805;19.29;23.58
29908;19.29;23.58
30012;19.28;23.58
30115;19.27;23.58
30218;19.23;23.58
30321;19.24;23.58
30424;19.25;23.58
30527;19.22;23.58
30630;19.23;23.58
30733;19.23;23.58
30836;19.22;23.58
30939;19.21;23.58
31042;19.20;23.58
31145;19.17;23.58
31249;19.17;23.58
31352;19.17;23.58
31455;19.16;23.58
31558;19.15;23.58
31661;19.14;23.58
31764;19.14;23.58
31867;19.12;23.58
31970;19.13;23.58
32073;19.12;23.58
32176;19.08;23.58
32279;19.06;23.58
32382;19.04;23.58
32486;19.04;23.58
32589;19.02;23.58
32692;18.99;23.58
32795;18.99;23.58
32898;18.97;23.58
33001;18.96;23.58
33104;18.95;23.58
33207;18.93;23.58
33310;18.90;23.59
33413;18.90;23.58
33516;18.89;23.59
33619;18.89;23.59
33723;18.87;23.58
33826;18.85;23.58
33929;18.85;23.58
34032;18.84;23.59
34135;18.84;23.58
34238;18.83;23.58
34341;18.81;23.58
34444;18.80;23.58
34547;18.79;23.57
34650;18.78;23.58
34753;18.78;23.58
34856;18.77;23.58
34960;18.76;23.58
35063;18.77;23.58
35166;18.76;23.59
35269;18.73;23.58
35372;18.73;23.58
35475;18.73;23.58
35578;18.72;23.58
35681;18.71;23.58
35784;18.71;23.58
35887;18.72;23.58
35990;18.70;23.58
36093;18.69;23.58
36197;18.69;23.58
36300;18.69;23.58
36403;18.67;23.58
36506;18.66;23.58
36609;18.63;23.58
36712;18.62;23.58
36815;18.63;23.58
36918;18.64;23.58
37021;18.62;23.58
37124;18.61;23.58
37227;18.60;23.58
37330;18.60;23.58
37434;18.61;23.58
37537;18.59;23.58
37640;18.58;23.58
37743;18.57;23.58
37846;18.57;23.58
37949;18.55;23.58
38052;18.55;23.58
38155;18.55;23.58
38258;18.54;23.58
38361;18.53;23.58
38464;18.54;23.58
38567;18.53;23.58
38671;18.52;23.58
38774;18.53;23.58
38877;18.53;23.58
38980;18.52;23.58
39083;18.50;23.58
39186;18.50;23.58
39289;18.50;23.58
3
39392;18.49;23.58
39495;18.70;23.58
39598;19.46;23.58
39701;20.32;23.58
39804;21.35;23.57
39908;22.49;23.56
40011;23.77;23.55
40114;25.09;23.53
4
40217;27.82;23.52
40320;29.28;23.51
40423;30.75;23.50
40526;32.19;23.50
40629;33.67;23.50
40732;35.19;23.49
40835;36.68;23.49
40938;38.14;23.49
5
41041;39.61;23.48
41144;40.95;23.48
41247;42.20;23.48
41350;43.42;23.48
41453;44.60;23.48
41556;45.75;23.48
41660;46.85;23.47
41763;48.82;23.47
6
41866;49.75;23.48
41969;50.60;23.48
42072;51.47;23.47
42175;52.29;23.48
42278;53.07;23.47
42381;53.82;23.48
42484;54.54;23.48
7
42587;55.25;23.49
42690;55.93;23.48
42793;56.60;23.48
42897;57.26;23.49
43000;57.89;23.49
43103;58.52;23.49
43206;59.06;23.49
8
43309;59.68;23.49
43412;60.83;23.49
43515;61.26;23.49
43618;61.76;23.49
43721;62.29;23.49
43824;62.81;23.49
43927;63.26;23.49
44030;63.68;23.49
9
44134;64.13;23.49
44237;64.54;23.48
44340;64.97;23.48
44443;65.34;23.48
44546;65.73;23.48
44649;66.12;23.49
44752;66.46;23.48
10
44855;66.87;23.48
44958;67.49;23.49
45061;67.81;23.48
45164;68.20;23.48
45267;68.57;23.48
45371;68.89;23.49
45474;69.18;23.49
11
45577;69.51;23.48
45680;69.83;23.49
45783;70.13;23.48
45886;70.40;23.48
45989;70.72;23.49
46092;71.00;23.49
46195;71.30;23.49
46298;71.54;23.49
46401;71.86;23.49
12
46504;72.13;23.49
46608;72.74;23.48
46711;72.94;23.49
46814;73.13;23.49
46917;73.36;23.49
47020;73.62;23.49
47123;73.84;23.48
13
47226;74.09;23.49
47329;74.31;23.48
47432;74.58;23.49
47535;74.80;23.49
47638;75.02;23.49
47741;75.26;23.49
47845;75.44;23.49
47948;75.71;23.49
14
48051;75.92;23.49
48154;76.26;23.49
48257;76.42;23.48
48360;76.65;23.48
48463;76.86;23.49
48566;77.08;23.49
48669;77.32;23.49
15
48772;77.57;23.49
48875;77.80;23.49
48978;78.01;23.49
49082;78.21;23.48
49185;78.46;23.48
49288;78.66;23.49
49391;78.86;23.48
49494;79.09;23.48
16
49597;79.24;23.48
49700;79.41;23.48
49803;79.78;23.48
49906;80.02;23.48
50009;80.21;23.48
50112;80.38;23.48
50215;80.58;23.48
17
50319;80.72;23.48
50422;80.90;23.48
50525;81.08;23.48
50628;81.30;23.48
50731;81.48;23.48
50834;81.69;23.48
50937;81.87;23.48
51040;81.92;23.49
18
51143;82.04;23.48
51246;82.30;23.48
51349;82.62;23.48
51452;82.82;23.48
51556;82.98;23.48
51659;83.15;23.48
51762;83.33;23.49
19
51865;83.46;23.49
51968;83.59;23.48
52071;83.79;23.48
52174;83.97;23.49
52277;84.14;23.48
52380;84.26;23.48
52483;84.44;23.49
52586;84.60;23.48
52689;84.76;23.48
20
52792;84.85;23.48
52895;84.99;23.48
52998;85.33;23.48
53101;85.52;23.48
53204;85.67;23.48
53308;85.81;23.48
53411;85.93;23.48
53514;86.10;23.49
21
53617;86.24;23.48
53720;86.43;23.48
53823;86.62;23.48
53926;86.76;23.48
54029;86.93;23.48
54132;87.10;23.48
54235;87.20;23.48
22
54338;87.38;23.48
54441;87.50;23.48
54545;87.82;23.48
54648;87.93;23.48
54751;88.04;23.49
54854;88.18;23.49
54957;88.38;23.49
55060;88.51;23.47
23
55163;88.63;23.48
55266;88.78;23.48
55369;88.92;23.48
55472;89.04;23.49
55575;89.18;23.48
55678;89.34;23.48
55782;89.45;23.48
24
55885;89.64;23.48
55988;89.70;23.48
56091;89.87;23.48
56194;90.17;23.48
56297;90.29;23.48
56400;90.47;23.48
56503;90.60;23.48
56606;90.72;23.48
25
56709;90.86;23.48
56812;91.03;23.48
56915;91.06;23.48
57019;91.22;23.48
57122;91.41;23.48
57225;91.54;23.48
57328;91.68;23.48
57431;91.77;23.48
26
57534;91.86;23.48
57637;92.00;23.48
57740;92.30;23.48
57843;92.46;23.48
57946;92.61;23.48
58049;92.70;23.48
58152;92.84;23.48
27
58256;92.96;23.48
58359;93.06;23.48
58462;93.16;23.48
58565;93.29;23.48
58668;93.44;23.48
58771;93.54;23.48
58874;93.62;23.48
58977;93.75;23.48
28
59080;93.85;23.48
59183;93.98;23.48
59286;94.05;23.48
59389;94.27;23.48
59493;94.38;23.48
59596;94.46;23.48
59699;94.53;23.48
29
59802;94.70;23.48
59905;94.76;23.49
60008;94.90;23.48
60111;94.98;23.48
60214;95.10;23.48
60317;95.21;23.48
60420;95.34;23.48
60523;95.39;23.48
60626;95.54;23.48
60730;95.66;23.48
30
60833;95.69;23.48
60936;95.95;23.48
61039;96.09;23.48
61142;96.20;23.49
61245;96.33;23.49
61348;96.41;23.48
61451;96.57;23.48
61554;96.65;23.48
31
61657;96.74;23.48
61760;96.85;23.48
61863;96.96;23.48
61967;97.11;23.49
62070;97.17;23.48
62173;97.26;23.48
62276;97.40;23.48
32
62379;97.55;23.48
62482;97.77;23.48
62585;97.88;23.48
62688;97.99;23.48
62791;98.14;23.48
62894;98.28;23.48
62997;98.36;23.48
33
63100;98.46;23.48
63204;98.60;23.48
63307;98.71;23.48
63410;98.80;23.49
63513;98.90;23.48
63616;99.04;23.48
63719;99.11;23.48
63822;99.22;23.48
34
63925;99.31;23.48
64028;99.42;23.49
64131;99.54;23.49
64234;99.63;23.48
64337;99.73;23.48
64440;99.78;23.48
64543;99.91;23.48
64646;99.99;23.48
35
64749;100.00;23.48
64852;100.00;23.48
64956;100.00;23.49
65059;100.00;23.48
65162;100.00;23.48
65265;100.00;23.49
65368;100.00;23.48
36
65471;100.00;23.49
65574;100.00;23.49
65677;100.00;23.49
65780;100.00;23.49
65883;100.00;23.49
65986;100.00;23.49
66089;100.00;23.49
37
66193;100.00;23.49
66296;100.00;23.49
66399;100.00;23.49
66502;100.00;23.49
66605;100.00;23.49
66708;100.00;23.49
66811;100.00;23.49
66914;100.00;23.49
38
67017;100.00;23.49
67120;100.00;23.49
67223;100.00;23.49
67326;100.00;23.49
67430;100.00;23.49
67533;100.00;23.49
67636;100.00;23.49
39
67739;100.00;23.49
67842;100.00;23.49
67945;100.00;23.49
68048;100.00;23.49
68151;100.00;23.49
68254;100.00;23.49
68357;100.00;23.48
68460;100.00;23.49
68563;100.00;23.49
40
68667;100.00;23.49
68770;100.00;23.49
68873;100.00;23.49
68976;100.00;23.49
69079;100.00;23.48
69182;100.00;23.49
69285;100.00;23.49
41
69388;100.00;23.49
69491;100.00;23.49
69594;100.00;23.49
69697;100.00;23.49
69800;100.00;23.48
69904;100.00;23.48
70007;100.00;23.47
70110;98.82;23.47
42
70213;97.87;23.47
70316;96.57;23.46
70419;95.20;23.46
70522;92.74;23.45
70625;91.30;23.45
70728;90.00;23.45
70831;88.66;23.45
70934;87.24;23.45
71037;85.92;23.44
71141;84.53;23.45
71244;83.18;23.45
71347;81.87;23.44
71450;80.58;23.44
71553;79.25;23.44
71656;77.93;23.44
71759;76.61;23.44
71862;75.33;23.44
71965;74.14;23.43
72068;72.93;23.44
72171;70.46;23.43
72274;69.29;23.43
72378;68.12;23.43
72481;67.00;23.44
72584;65.90;23.43
72687;64.86;23.43
72790;63.85;23.43
72893;62.84;23.42
72996;61.86;23.43
73099;60.93;23.42
73202;60.00;23.42
73305;59.04;23.42
73408;58.22;23.42
73511;57.31;23.42
73615;56.46;23.42
73718;54.89;23.41
73821;54.16;23.41
73924;53.42;23.42
74027;52.73;23.41
74130;52.04;23.42
74233;51.38;23.42
74336;50.70;23.41
74439;50.09;23.41
74542;49.49;23.41
74645;48.88;23.41
74748;48.30;23.41
74852;47.72;23.41
74955;47.19;23.40
75058;46.69;23.41
75161;46.15;23.40
75264;45.69;23.40
75367;44.72;23.40
75470;44.30;23.40
75573;43.87;23.40
75676;43.44;23.40
75779;43.00;23.40
75882;42.59;23.39
75985;42.20;23.40
76088;41.81;23.40
76191;41.43;23.40
76294;41.08;23.40
76397;40.72;23.40
76500;40.37;23.40
76604;40.04;23.39
76707;39.76;23.39
76810;39.44;23.39
76913;38.83;23.39
77016;38.55;23.39
77119;38.27;23.39
77222;37.99;23.39
77325;37.70;23.39
77428;37.43;23.39
77531;37.17;23.39
77634;36.94;23.39
77737;36.68;23.39
77841;36.44;23.39
77944;36.22;23.39
78047;35.99;23.39
78150;35.78;23.39
78253;35.54;23.39
78356;35.34;23.39
78459;35.12;23.39
78562;34.72;23.39
78665;34.52;23.39
78768;34.35;23.38
78871;34.18;23.38
78974;33.99;23.38
79078;33.80;23.38
79181;33.62;23.38
79284;33.45;23.39
79387;33.29;23.39
79490;33.13;23.39
79593;32.98;23.38
79696;32.82;23.39
79799;32.67;23.39
79902;32.52;23.39
80005;32.37;23.39
80108;32.08;23.39
80211;31.95;23.39
80315;31.78;23.39
80418;31.64;23.38
80521;31.52;23.39
80624;31.37;23.39
80727;31.25;23.39
80830;31.12;23.39
80933;30.99;23.39
81036;30.87;23.39
81139;30.74;23.39
81242;30.62;23.39
81345;30.48;23.38
81448;30.39;23.39
81552;30.26;23.39
81655;30.08;23.39
81758;29.97;23.39
81861;29.84;23.39
81964;29.74;23.39
82067;29.63;23.39
82170;29.54;23.39
82273;29.45;23.39
82376;29.36;23.39
82479;29.27;23.39
82582;29.17;23.39
82685;29.07;23.40
82789;28.96;23.40
82892;28.87;23.39
82995;28.80;23.39
83098;28.73;23.39
83201;28.63;23.39
83304;28.45;23.40
83407;28.36;23.40
83510;28.29;23.40
83613;28.20;23.39
83716;28.11;23.40
83819;28.04;23.40
83922;27.96;23.40
84026;27.91;23.40
84129;27.83;23.40
84232;27.74;23.40
84335;27.66;23.40
84438;27.58;23.40
84541;27.51;23.40
84644;27.42;23.40
84747;27.39;23.40
84850;27.28;23.40
84953;27.14;23.40
85056;27.08;23.40
85159;27.01;23.40
85263;26.94;23.40
85366;26.88;23.40
85469;26.84;23.40
85572;26.77;23.40
85675;26.71;23.41
85778;26.66;23.40
85881;26.59;23.40
85984;26.52;23.40
86087;26.48;23.41
86190;26.41;23.41
86293;26.36;23.41
86396;26.26;23.40
86500;26.16;23.40
86603;26.12;23.41
86706;26.06;23.41
86809;25.99;23.41
86912;25.95;23.41
87015;25.89;23.41
87118;25.83;23.41
87221;25.79;23.40
87324;25.75;23.40
87427;25.71;23.41
87530;25.67;23.41
87633;25.62;23.41
87736;25.56;23.41
87839;25.51;23.41
87942;25.47;23.41
88045;25.42;23.41
88148;25.34;23.42
88252;25.28;23.41
88355;25.23;23.41
88458;25.19;23.41
88561;25.14;23.41
88664;25.09;23.41
88767;25.03;23.41
88870;24.99;23.42
88973;24.93;23.42
89076;24.89;23.42
89179;24.84;23.42
89282;24.79;23.42
89385;24.76;23.42
89489;24.72;23.42
89592;24.69;23.42
89695;24.57;23.42
89798;24.53;23.42
89901;24.48;23.42
90004;24.46;23.42
90107;24.44;23.42
90210;24.39;23.42
90313;24.35;23.42
90416;24.31;23.43
90519;24.27;23.42
90622;24.22;23.42
90726;24.17;23.43
90829;24.12;23.43
90932;24.10;23.43
91035;24.04;23.43
91138;24.02;23.43
91241;24.02;23.43
91344;23.94;23.43
91447;23.91;23.42
91550;23.87;23.43
91653;23.84;23.43
91756;23.81;23.43
91859;23.76;23.43
91963;23.73;23.43
92066;23.71;23.43
92169;23.68;23.43
92272;23.65;23.43
92375;23.60;23.43
92478;23.57;23.43
92581;23.55;23.43
92684;23.54;23.43
92787;23.50;23.43
92890;23.43;23.43
92993;23.40;23.43
93096;23.38;23.43
93200;23.33;23.43
93303;23.30;23.43
93406;23.26;23.43
93509;23.22;23.43
93612;23.20;23.43
93715;23.17;23.44
93818;23.14;23.44
93921;23.11;23.44
94024;23.06;23.44
94127;23.05;23.44
94230;23.02;23.44
94333;23.02;23.43
94437;22.98;23.44
94540;22.95;23.44
94643;22.94;23.43
94746;22.92;23.44
94849;22.89;23.43
94952;22.88;23.44
95055;22.86;23.44
95158;22.84;23.44
95261;22.80;23.44
95364;22.78;23.44
95467;22.76;23.44
95570;22.71;23.44
95674;22.67;23.44
95777;22.62;23.45
95880;22.60;23.45
95983;22.60;23.45
96086;22.53;23.45
96189;22.52;23.45
96292;22.50;23.46
96395;22.48;23.46
96498;22.46;23.45
96601;22.43;23.46
96704;22.40;23.45
96807;22.36;23.45
96911;22.33;23.46
97014;22.31;23.45
97117;22.27;23.45
97220;22.27;23.45
97323;22.23;23.45
97426;22.23;23.46
97529;22.21;23.46
97632;22.21;23.45
97735;22.17;23.46
97838;22.16;23.46
97941;22.15;23.46
98044;22.12;23.46
98148;22.07;23.45
98251;22.06;23.46
98354;22.04;23.45
98457;22.03;23.45
98560;21.99;23.46
98663;21.98;23.46
98766;21.95;23.46
98869;21.92;23.46
98972;21.92;23.46
99075;21.91;23.46
99178;21.89;23.46
99281;21.88;23.46
99384;21.86;23.46
43
99487;21.85;23.46
99590;21.85;23.47
99693;21.83;23.46
99796;21.85;23.47
99900;21.87;23.47
100003;21.91;23.46
100106;21.96;23.47
100209;22.03;23.47
100312;22.07;23.47
100415;22.14;23.46
44
100518;22.20;23.47
100621;22.30;23.47
100724;22.35;23.47
100827;22.46;23.46
100930;22.65;23.47
101033;22.77;23.48
101137;22.86;23.47
101240;22.97;23.48
101343;23.08;23.47
101446;23.20;23.48
101549;23.30;23.48
101652;23.41;23.48
101755;23.52;23.48
101858;23.62;23.48
101961;23.71;23.48
102064;23.77;23.47
102167;23.89;23.48
102270;23.98;23.48
102374;24.08;23.48
102477;24.21;23.48
102580;24.30;23.47
102683;24.37;23.47
102786;24.