=~=~=~=~=~=~=~=~=~=~=~= PuTTY log 2023.07.05 18:47:04 =~=~=~=~=~=~=~=~=~=~=~=
9BME280 test
-- Default Test --
Time;RH;Temp
222;37.45;-14.65
325;37.49;-14.65
428;37.50;-14.65
531;37.53;-14.64
634;37.54;-14.65
737;37.57;-14.64
840;37.59;-14.64
943;37.63;-14.63
1046;37.62;-14.63
1149;37.68;-14.62
1253;37.71;-14.62
1356;37.74;-14.62
1459;37.76;-14.62
1562;37.78;-14.61
1665;37.81;-14.61
1768;37.83;-14.61
1871;37.86;-14.61
1974;37.88;-14.60
2077;37.92;-14.60
2180;37.96;-14.60
2283;38.00;-14.59
2386;38.03;-14.59
2490;38.06;-14.59
2593;38.09;-14.58
2696;38.12;-14.58
2799;38.15;-14.58
2902;38.18;-14.57
3005;38.21;-14.57
3108;38.23;-14.57
3211;38.26;-14.57
3314;38.35;-14.56
3417;38.37;-14.56
3520;38.41;-14.56
3623;38.44;-14.55
3727;38.47;-14.55
3830;38.50;-14.54
3933;38.54;-14.54
4036;38.57;-14.54
4139;38.58;-14.54
4242;38.65;-14.53
4345;38.71;-14.53
4448;38.77;-14.52
4551;38.80;-14.52
4654;38.84;-14.52
4757;38.88;-14.51
4860;38.92;-14.51
4964;38.96;-14.51
5067;38.99;-14.50
5170;39.04;-14.50
5273;39.10;-14.50
5376;39.12;-14.50
5479;39.21;-14.49
5582;39.25;-14.49
5685;39.29;-14.48
5788;39.33;-14.48
5891;39.37;-14.48
5994;39.42;-14.47
6097;39.46;-14.47
6200;39.51;-14.47
6303;39.53;-14.47
6406;39.57;-14.46
6509;39.68;-14.46
6612;39.72;-14.45
6716;39.77;-14.46
6819;39.82;-14.45
6922;39.86;-14.45
7025;39.91;-14.45
7128;39.95;-14.44
7231;40.00;-14.44
7334;40.02;-14.43
7437;40.09;-14.43
7540;40.16;-14.42
7643;40.23;-14.42
7746;40.28;-14.42
7849;40.33;-14.41
7953;40.38;-14.41
8056;40.43;-14.41
8159;40.49;-14.41
8262;40.53;-14.41
8365;40.56;-14.40
8468;40.61;-14.40
8571;40.69;-14.40
8674;40.78;-14.40
8777;40.82;-14.39
8880;40.88;-14.39
8983;40.92;-14.38
9086;40.97;-14.38
9190;41.02;-14.38
9293;41.08;-14.37
9396;41.13;-14.37
9499;41.14;-14.37
9602;41.22;-14.37
9705;41.32;-14.36
9808;41.38;-14.36
9911;41.43;-14.36
10014;41.48;-14.35
10117;41.53;-14.35
10220;41.58;-14.35
10323;41.63;-14.35
10427;41.70;-14.34
10530;41.73;-14.34
10633;41.78;-14.34
10736;41.78;-14.32
10839;41.82;-14.32
10942;41.84;-14.31
11045;41.84;-14.29
11148;41.86;-14.29
11251;41.87;-14.27
11354;41.86;-14.26
11457;41.86;-14.25
11560;41.85;-14.24
11664;41.82;-14.24
11767;41.83;-14.23
11870;41.78;-14.21
11973;41.76;-14.20
12076;41.74;-14.19
12179;41.71;-14.19
12282;41.68;-14.19
12385;41.65;-14.18
12488;41.62;-14.18
12591;41.59;-14.17
12694;41.56;-14.16
12797;41.57;-14.16
12901;41.46;-14.16
13004;41.42;-14.14
13107;41.38;-14.14
13210;41.34;-14.13
13313;41.31;-14.13
13416;41.27;-14.13
13519;41.23;-14.12
13622;41.19;-14.12
13725;41.16;-14.11
13828;41.10;-14.11
13931;41.07;-14.11
14034;40.99;-14.09
14138;40.95;-14.09
14241;40.91;-14.09
14344;40.87;-14.08
14447;40.83;-14.08
14550;40.79;-14.08
14653;40.75;-14.07
14756;40.71;-14.06
14859;40.64;-14.07
14962;40.64;-14.06
15065;40.53;-14.05
15168;40.49;-14.05
15271;40.45;-14.04
15375;40.41;-14.03
15478;40.37;-14.03
15581;40.32;-14.03
15684;40.28;-14.03
15787;40.24;-14.02
15890;40.21;-14.02
15993;40.16;-14.01
16096;40.10;-14.01
16199;40.02;-14.00
16302;39.98;-14.00
16405;39.95;-13.99
16508;39.90;-13.99
16612;39.86;-13.99
16715;39.82;-13.98
16818;39.78;-13.98
16921;39.74;-13.98
17024;39.73;-13.98
17127;39.68;-13.97
17230;39.58;-13.97
17333;39.54;-13.96
17436;39.50;-13.96
17539;39.46;-13.95
17642;39.42;-13.96
17745;39.38;-13.95
17848;39.34;-13.94
17951;39.31;-13.94
18054;39.25;-13.94
18157;39.22;-13.93
18260;39.16;-13.92
18364;39.12;-13.92
18467;39.08;-13.92
18570;39.04;-13.92
18673;38.99;-13.92
18776;38.95;-13.92
18879;38.91;-13.92
18982;38.88;-13.91
19085;38.86;-13.91
19188;38.82;-13.91
19291;38.80;-13.91
19394;38.70;-13.90
19497;38.66;-13.90
19601;38.63;-13.89
19704;38.58;-13.89
19807;38.55;-13.89
19910;38.52;-13.89
20013;38.49;-13.88
20116;38.45;-13.88
20219;38.40;-13.88
20322;38.39;-13.88
20425;38.31;-13.87
20528;38.28;-13.87
20631;38.25;-13.87
20734;38.21;-13.87
20838;38.18;-13.86
20941;38.14;-13.86
21044;38.10;-13.86
21147;38.07;-13.86
21250;38.04;-13.86
21353;38.01;-13.86
21456;37.94;-13.85
21559;37.91;-13.85
21662;37.88;-13.85
21765;37.85;-13.85
21868;37.81;-13.85
21971;37.79;-13.85
22075;37.75;-13.84
22178;37.71;-13.84
22281;37.65;-13.83
22384;37.62;-13.83
22487;37.61;-13.83
22590;37.56;-13.83
22693;37.53;-13.83
22796;37.50;-13.83
22899;37.46;-13.82
23002;37.44;-13.82
23105;37.41;-13.82
23208;37.38;-13.82
23312;37.33;-13.82
23415;37.32;-13.81
23518;37.29;-13.81
23621;37.22;-13.81
23724;37.19;-13.81
23827;37.17;-13.80
23930;37.15;-13.80
24033;37.12;-13.80
24136;37.09;-13.80
24239;37.07;-13.80
24342;37.04;-13.80
24445;36.96;-13.80
24549;36.98;-13.80
24652;36.92;-13.80
24755;36.90;-13.80
24858;36.87;-13.80
24961;36.84;-13.79
25064;36.81;-13.79
25167;36.79;-13.79
25270;36.75;-13.79
25373;36.73;-13.79
25476;36.71;-13.78
25579;36.72;-13.79
25682;36.64;-13.78
25786;36.60;-13.78
25889;36.57;-13.78
25992;36.55;-13.78
26095;36.53;-13.78
26198;36.50;-13.78
26301;36.46;-13.78
26404;36.44;-13.78
26507;36.41;-13.78
26610;36.37;-13.78
26713;36.34;-13.78
26816;36.31;-13.78
26919;36.28;-13.77
27023;36.26;-13.78
27126;36.24;-13.77
27229;36.21;-13.77
27332;36.20;-13.77
27435;36.17;-13.77
27538;36.15;-13.77
27641;36.12;-13.77
27744;36.11;-13.77
27847;36.07;-13.77
27950;36.02;-13.77
28053;36.00;-13.77
28156;35.97;-13.77
28260;35.95;-13.77
28363;35.93;-13.77
28466;35.91;-13.77
28569;35.88;-13.77
28672;35.86;-13.76
28775;35.80;-13.76
28878;35.79;-13.76
28981;35.78;-13.76
29084;35.74;-13.77
29187;35.72;-13.77
29290;35.69;-13.77
29393;35.68;-13.77
29496;35.66;-13.77
29599;35.64;-13.76
29702;35.62;-13.77
29805;35.62;-13.76
29908;35.57;-13.76
30012;35.54;-13.78
30115;35.51;-13.77
30218;35.50;-13.77
30321;35.47;-13.77
30424;35.45;-13.76
30527;35.42;-13.77
30630;35.40;-13.77
30733;35.38;-13.77
30836;35.36;-13.77
30939;35.37;-13.77
31042;35.33;-13.76
31145;35.28;-13.77
31249;35.26;-13.77
31352;35.24;-13.77
31455;35.22;-13.77
31558;35.20;-13.76
31661;35.18;-13.76
31764;35.16;-13.77
31867;35.14;-13.76
31970;35.11;-13.77
32073;35.12;-13.77
32176;35.06;-13.77
32279;35.03;-13.77
32382;35.02;-13.77
32486;35.00;-13.77
32589;34.98;-13.77
32692;34.96;-13.77
32795;34.95;-13.77
32898;34.93;-13.77
33001;34.89;-13.77
33104;34.91;-13.77
33207;34.85;-13.77
33310;34.84;-13.77
33413;34.83;-13.77
33516;34.81;-13.77
33619;34.79;-13.77
33723;34.76;-13.77
33826;34.74;-13.77
33929;34.73;-13.77
34032;34.71;-13.77
34135;34.67;-13.77
34238;34.65;-13.77
34341;34.65;-13.78
34444;34.63;-13.78
34547;34.61;-13.78
34650;34.59;-13.78
34753;34.58;-13.78
34856;34.56;-13.78
34960;34.54;-13.78
35063;34.52;-13.78
35166;34.50;-13.78
35269;34.48;-13.78
35372;34.46;-13.78
35475;34.43;-13.78
35578;34.42;-13.78
35681;34.40;-13.79
35784;34.39;-13.78
35887;34.37;-13.78
35990;34.35;-13.79
36093;34.34;-13.78
36197;34.29;-13.79
36300;34.28;-13.79
36403;34.32;-13.79
36506;34.27;-13.79
36609;34.25;-13.79
36712;34.24;-13.79
36815;34.22;-13.79
36918;34.21;-13.80
37021;34.19;-13.80
37124;34.18;-13.80
37227;34.17;-13.80
37330;34.16;-13.80
37434;34.13;-13.80
37537;34.09;-13.80
37640;34.07;-13.80
37743;34.05;-13.80
37846;34.05;-13.80
37949;34.03;-13.80
38052;34.02;-13.80
38155;34.00;-13.80
38258;33.98;-13.81
38361;33.95;-13.81
38464;33.96;-13.81
38567;33.92;-13.81
38671;33.92;-13.81
38774;33.90;-13.82
38877;33.89;-13.82
38980;33.87;-13.82
39083;33.85;-13.82
39186;33.83;-13.83
39289;33.82;-13.82
39392;33.81;-13.82
39495;33.78;-13.82
39598;33.76;-13.82
39701;33.75;-13.83
39804;33.74;-13.83
39908;33.72;-13.82
40011;33.71;-13.83
40114;33.69;-13.83
40217;33.68;-13.83
40320;33.67;-13.83
40423;33.65;-13.83
40526;33.61;-13.83
40629;33.66;-13.84
40732;33.60;-13.84
40835;33.58;-13.84
40938;33.56;-13.84
41041;33.55;-13.85
41144;33.54;-13.85
41247;33.53;-13.85
41350;33.51;-13.85
41453;33.50;-13.85
41556;33.49;-13.85
41660;33.48;-13.85
41763;33.45;-13.85
41866;33.43;-13.85
41969;33.42;-13.85
42072;33.41;-13.85
42175;33.39;-13.85
42278;33.38;-13.85
42381;33.38;-13.86
42484;33.36;-13.85
42587;33.35;-13.86
42690;33.32;-13.85
42793;33.32;-13.86
42897;33.29;-13.86
43000;33.29;-13.86
43103;33.27;-13.86
43206;33.26;-13.86
43309;33.25;-13.86
43412;33.24;-13.86
43515;33.23;-13.87
43618;33.22;-13.87
43721;33.23;-13.87
43824;33.16;-13.87
43927;33.22;-13.87
44030;33.16;-13.87
44134;33.15;-13.87
44237;33.14;-13.88
44340;33.13;-13.87
44443;33.12;-13.88
44546;33.11;-13.88
44649;33.10;-13.88
44752;33.08;-13.88
44855;33.07;-13.88
44958;33.04;-13.88
45061;33.04;-13.89
45164;33.03;-13.89
45267;33.01;-13.89
45371;33.00;-13.89
45474;32.99;-13.89
1
45577;32.98;-13.89
45680;33.24;-13.89
45783;33.54;-13.89
45886;33.91;-13.85
45989;34.25;-13.79
46092;35.04;-13.65
46195;35.46;-13.57
46298;35.88;-13.49
46401;36.32;-13.41
46504;36.76;-13.34
46608;37.22;-13.29
46711;37.71;-13.23
46814;38.17;-13.18
46917;38.63;-13.13
47020;39.09;-13.10
47123;39.59;-13.03
47226;40.55;-13.01
47329;40.99;-12.98
47432;41.44;-12.96
47535;41.84;-12.94
47638;42.26;-12.92
47741;42.63;-12.92
47845;42.96;-12.91
47948;43.37;-12.90
48051;43.71;-12.90
48154;44.02;-12.89
48257;44.71;-12.89
48360;45.01;-12.90
48463;45.33;-12.90
48566;45.72;-12.90
48669;45.96;-12.89
48772;46.39;-12.89
48875;46.66;-12.89
48978;46.94;-12.88
49082;47.32;-12.88
49185;47.70;-12.87
49288;47.95;-12.85
49391;48.55;-12.84
49494;48.92;-12.83
49597;49.13;-12.82
49700;49.41;-12.81
49803;49.74;-12.80
49906;49.95;-12.79
50009;50.31;-12.79
50112;50.57;-12.78
50215;50.84;-12.77
50319;51.19;-12.76
50422;51.80;-12.73
50525;52.05;-12.72
50628;52.38;-12.71
50731;52.60;-12.70
50834;52.89;-12.68
50937;53.09;-12.67
51040;53.36;-12.65
51143;53.62;-12.64
51246;53.83;-12.63
51349;54.10;-12.63
51452;54.28;-12.61
51556;54.72;-12.61
51659;55.02;-12.60
51762;55.23;-12.59
51865;55.51;-12.58
51968;55.69;-12.58
52071;55.89;-12.57
52174;56.15;-12.55
52277;56.40;-12.54
52380;56.60;-12.54
52483;56.75;-12.53
52586;57.28;-12.51
52689;57.59;-12.50
52792;57.82;-12.48
52895;57.99;-12.46
52998;58.20;-12.44
53101;58.45;-12.43
53204;58.63;-12.41
53308;58.75;-12.40
53411;58.96;-12.39
53514;59.15;-12.38
53617;59.37;-12.37
53720;59.71;-12.36
53823;59.89;-12.35
53926;60.08;-12.34
54029;60.30;-12.34
54132;60.51;-12.33
54235;60.63;-12.32
54338;60.84;-12.31
54441;61.02;-12.30
54545;61.18;-12.29
54648;61.47;-12.28
54751;61.80;-12.25
54854;62.07;-12.24
54957;62.22;-12.22
55060;62.39;-12.20
55163;62.53;-12.19
55266;62.78;-12.18
55369;62.96;-12.16
55472;63.09;-12.15
55575;63.29;-12.13
55678;63.51;-12.11
55782;63.70;-12.10
55885;63.90;-12.08
55988;64.07;-12.07
56091;64.27;-12.06
56194;64.39;-12.05
56297;64.62;-12.05
56400;64.73;-12.04
56503;64.79;-12.02
56606;64.98;-12.01
56709;65.10;-12.01
56812;65.22;-12.00
56915;65.58;-11.99
57019;65.79;-11.97
57122;65.91;-11.96
57225;66.07;-11.94
57328;66.16;-11.94
57431;66.36;-11.92
57534;66.51;-11.92
57637;66.70;-11.91
57740;66.75;-11.89
57843;66.93;-11.87
57946;67.14;-11.86
58049;67.26;-11.83
58152;67.48;-11.82
58256;67.64;-11.81
58359;67.71;-11.81
58462;67.87;-11.80
58565;68.04;-11.78
58668;68.11;-11.77
58771;68.30;-11.76
58874;68.50;-11.75
58977;68.63;-11.73
59080;68.86;-11.70
59183;68.90;-11.69
59286;69.09;-11.68
59389;69.23;-11.67
59493;69.32;-11.65
59596;69.56;-11.64
59699;69.65;-11.64
59802;69.76;-11.62
59905;69.89;-11.61
60008;69.92;-11.60
60111;70.08;-11.58
60214;70.42;-11.56
60317;70.51;-11.54
60420;70.52;-11.53
60523;70.66;-11.52
60626;70.76;-11.51
60730;70.95;-11.51
60833;71.16;-11.50
60936;71.20;-11.48
61039;71.31;-11.46
61142;71.41;-11.45
61245;71.55;-11.43
61348;71.69;-11.42
61451;71.85;-11.41
61554;71.90;-11.40
61657;72.06;-11.39
61760;72.09;-11.38
61863;72.27;-11.37
61967;72.31;-11.36
62070;72.49;-11.35
62173;72.53;-11.34
62276;72.67;-11.32
62379;72.86;-11.30
62482;73.01;-11.30
62585;73.09;-11.28
62688;73.17;-11.27
62791;73.26;-11.26
62894;73.37;-11.25
62997;73.44;-11.24
63100;73.53;-11.23
63204;73.66;-11.22
63307;73.77;-11.21
63410;73.80;-11.19
63513;74.01;-11.17
63616;74.13;-11.16
63719;74.16;-11.15
63822;74.26;-11.14
63925;74.33;-11.13
64028;74.39;-11.12
64131;74.50;-11.11
64234;74.68;-11.10
64337;74.70;-11.09
64440;74.78;-11.07
64543;74.97;-11.05
64646;75.02;-11.04
64749;75.17;-11.03
64852;75.19;-11.02
64956;75.28;-11.01
65059;75.35;-11.00
65162;75.44;-10.98
65265;75.47;-10.98
65368;75.51;-10.97
65471;75.61;-10.96
65574;75.74;-10.96
65677;75.90;-10.94
65780;75.95;-10.93
65883;76.11;-10.91
65986;76.19;-10.90
66089;76.26;-10.88
66193;76.36;-10.87
66296;76.52;-10.86
66399;76.57;-10.84
66502;76.69;-10.83
66605;76.78;-10.81
66708;76.95;-10.79
66811;76.97;-10.76
66914;77.04;-10.75
67017;77.07;-10.74
67120;77.18;-10.73
67223;77.24;-10.72
67326;77.27;-10.71
67430;77.34;-10.71
67533;77.35;-10.70
67636;77.47;-10.70
67739;77.55;-10.69
67842;77.64;-10.67
67945;77.68;-10.66
68048;77.79;-10.66
68151;77.86;-10.65
68254;77.97;-10.64
68357;78.04;-10.64
68460;78.13;-10.62
68563;78.22;-10.61
68667;78.30;-10.60
68770;78.35;-10.59
68873;78.47;-10.57
68976;78.60;-10.55
69079;78.71;-10.53
69182;78.73;-10.52
69285;78.72;-10.51
69388;78.80;-10.50
69491;78.92;-10.49
69594;79.00;-10.48
69697;79.04;-10.47
69800;79.06;-10.46
69904;79.11;-10.46
70007;79.23;-10.44
70110;79.37;-10.43
70213;79.50;-10.42
70316;79.51;-10.41
70419;79.54;-10.39
70522;79.62;-10.38
70625;79.69;-10.38
70728;79.74;-10.37
70831;79.87;-10.36
70934;79.93;-10.35
71037;79.98;-10.33
71141;80.17;-10.31
71244;80.17;-10.30
71347;80.31;-10.29
71450;80.34;-10.28
71553;80.30;-10.26
71656;80.48;-10.25
71759;80.52;-10.24
71862;80.56;-10.23
71965;80.57;-10.22
72068;80.67;-10.22
72171;80.81;-10.21
72274;80.82;-10.19
72378;80.97;-10.18
72481;81.02;-10.17
72584;81.15;-10.15
72687;81.14;-10.14
72790;81.15;-10.13
72893;81.28;-10.12
72996;81.31;-10.10
73099;81.41;-10.10
73202;81.51;-10.09
73305;81.50;-10.07
73408;81.58;-10.05
73511;81.59;-10.05
73615;81.62;-10.04
73718;81.68;-10.04
73821;81.76;-10.03
73924;81.84;-10.02
74027;81.84;-10.01
74130;81.93;-10.00
74233;82.06;-9.99
74336;82.09;-9.98
74439;82.29;-9.96
74542;82.26;-9.95
74645;82.30;-9.93
74748;82.37;-9.92
74852;82.50;-9.91
74955;82.57;-9.90
75058;82.57;-9.88
75161;82.62;-9.88
75264;82.69;-9.86
75367;82.73;-9.85
75470;82.85;-9.84
2
75573;82.91;-9.82
75676;82.79;-9.82
75779;82.69;-9.80
75882;82.58;-9.81
75985;82.50;-9.81
76088;82.41;-9.82
76191;82.31;-9.83
76294;82.22;-9.85
76397;82.13;-9.86
76500;81.98;-9.88
76604;81.95;-9.90
76707;81.76;-9.93
76810;81.68;-9.94
76913;81.58;-9.95
77016;81.48;-9.96
77119;81.42;-9.98
77222;81.34;-9.98
77325;81.27;-10.00
77428;81.17;-10.01
77531;81.08;-10.02
77634;80.99;-10.03
77737;80.91;-10.04
77841;80.77;-10.06
77944;80.70;-10.06
78047;80.68;-10.07
78150;80.58;-10.08
78253;80.51;-10.08
78356;80.42;-10.09
78459;80.37;-10.09
78562;80.26;-10.10
78665;80.20;-10.11
78768;80.11;-10.12
78871;79.95;-10.14
78974;79.88;-10.14
79078;79.78;-10.15
79181;79.70;-10.16
79284;79.63;-10.17
79387;79.58;-10.18
79490;79.50;-10.19
79593;79.45;-10.20
79696;79.36;-10.20
79799;79.27;-10.21
79902;79.20;-10.22
80005;79.05;-10.23
80108;78.99;-10.25
80211;78.88;-10.26
80315;78.86;-10.27
80418;78.75;-10.28
80521;78.68;-10.28
80624;78.63;-10.29
80727;78.58;-10.30
80830;78.46;-10.31
80933;78.39;-10.32
81036;78.30;-10.33
81139;78.20;-10.34
81242;78.11;-10.36
81345;78.03;-10.37
81448;77.93;-10.38
81552;77.87;-10.39
81655;77.75;-10.40
81758;77.72;-10.41
81861;77.69;-10.43
81964;77.57;-10.44
82067;77.51;-10.44
82170;77.40;-10.46
82273;77.29;-10.48
82376;77.21;-10.48
82479;77.12;-10.49
82582;77.09;-10.50
82685;77.02;-10.51
82789;76.90;-10.52
82892;76.89;-10.53
82995;76.76;-10.55
83098;76.68;-10.56
83201;76.68;-10.57
83304;76.50;-10.59
83407;76.46;-10.60
83510;76.42;-10.61
83613;76.31;-10.62
83716;76.25;-10.62
83819;76.14;-10.63
83922;76.02;-10.64
84026;75.98;-10.65
84129;75.90;-10.67
84232;75.81;-10.68
84335;75.76;-10.70
84438;75.59;-10.71
84541;75.51;-10.72
84644;75.39;-10.73
84747;75.36;-10.74
84850;75.27;-10.75
84953;75.17;-10.76
85056;75.10;-10.78
85159;75.02;-10.79
85263;75.02;-10.80
85366;74.97;-10.81
85469;74.75;-10.83
85572;74.68;-10.84
85675;74.62;-10.85
85778;74.56;-10.87
85881;74.49;-10.87
85984;74.42;-10.89
86087;74.33;-10.90
86190;74.26;-10.91
86293;74.20;-10.92
86396;74.13;-10.93
86500;74.03;-10.95
86603;73.89;-10.96
86706;73.85;-10.98
86809;73.82;-10.98
86912;73.72;-10.99
87015;73.67;-11.00
87118;73.61;-11.00
87221;73.52;-11.01
87324;73.39;-11.02
87427;73.30;-11.03
87530;73.25;-11.04
87633;73.18;-11.07
87736;72.98;-11.08
87839;72.93;-11.09
87942;72.85;-11.10
88045;72.78;-11.11
88148;72.73;-11.11
88252;72.63;-11.13
88355;72.58;-11.14
88458;72.49;-11.14
88561;72.45;-11.16
88664;72.39;-11.16
88767;72.20;-11.18
88870;72.14;-11.20
88973;72.02;-11.21
89076;71.93;-11.22
89179;71.88;-11.22
89282;71.80;-11.24
89385;71.77;-11.25
89489;71.70;-11.26
89592;71.62;-11.27
89695;71.54;-11.27
89798;71.46;-11.29
89901;71.34;-11.31
90004;71.25;-11.31
90107;71.12;-11.32
90210;71.06;-11.33
90313;70.97;-11.34
90416;70.88;-11.35
90519;70.86;-11.36
90622;70.78;-11.37
90726;70.67;-11.37
90829;70.60;-11.39
90932;70.44;-11.40
91035;70.34;-11.41
91138;70.29;-11.41
91241;70.22;-11.43
91344;70.19;-11.43
91447;70.08;-11.44
91550;69.98;-11.45
91653;69.91;-11.46
91756;69.85;-11.47
91859;69.79;-11.48
91963;69.68;-11.49
92066;69.52;-11.50
92169;69.44;-11.51
92272;69.34;-11.52
92375;69.30;-11.53
92478;69.23;-11.54
92581;69.17;-11.54
92684;69.10;-11.56
92787;68.99;-11.56
92890;68.91;-11.57
92993;68.84;-11.58
93096;68.75;-11.59
93200;68.57;-11.61
93303;68.54;-11.62
93406;68.45;-11.63
93509;68.38;-11.63
93612;68.27;-11.64
93715;68.21;-11.65
93818;68.08;-11.66
93921;68.03;-11.67
94024;67.97;-11.68
94127;67.88;-11.69
94230;67.70;-11.70
94333;67.62;-11.71
94437;67.55;-11.73
94540;67.47;-11.73
94643;67.37;-11.74
94746;67.30;-11.75
94849;67.22;-11.76
94952;67.17;-11.76
95055;67.04;-11.77
95158;66.98;-11.78
95261;66.90;-11.78
95364;66.72;-11.80
95467;66.68;-11.81
95570;66.60;-11.82
95674;66.50;-11.82
95777;66.39;-11.83
95880;66.32;-11.84
95983;66.27;-11.85
96086;66.19;-11.86
96189;66.16;-11.87
96292;66.09;-11.88
96395;65.90;-11.89
96498;65.83;-11.90
96601;65.75;-11.91
96704;65.66;-11.92
96807;65.57;-11.92
96911;65.46;-11.93
97014;65.38;-11.94
97117;65.34;-11.94
97220;65.21;-11.96
97323;65.14;-11.96
97426;65.01;-11.97
97529;64.92;-11.99
97632;64.80;-12.00
97735;64.70;-12.00
97838;64.64;-12.01
97941;64.55;-12.02
98044;64.48;-12.03
98148;64.41;-12.04
98251;64.32;-12.04
98354;64.31;-12.05
98457;64.24;-12.05
98560;64.04;-12.07
98663;63.93;-12.08
98766;63.87;-12.09
98869;63.79;-12.09
98972;63.69;-12.10
99075;63.63;-12.11
99178;63.53;-12.12
99281;63.43;-12.13
99384;63.35;-12.13
99487;63.26;-12.14
99590;63.19;-12.15
99693;63.03;-12.16
99796;62.96;-12.18
99900;62.84;-12.18
100003;62.77;-12.18
100106;62.70;-12.19
100209;62.61;-12.20
100312;62.53;-12.21
100415;62.45;-12.21
100518;62.36;-12.22
100621;62.30;-12.23
100724;62.15;-12.25
100827;62.07;-12.26
100930;61.99;-12.26
101033;61.93;-12.27
101137;61.85;-12.27
101240;61.73;-12.28
101343;61.66;-12.29
101446;61.55;-12.30
101549;61.49;-12.30
101652;61.43;-12.31
101755;61.33;-12.32
101858;61.15;-12.33
101961;61.07;-12.33
102064;60.98;-12.34
102167;60.93;-12.35
102270;60.83;-12.35
102374;60.73;-12.36
102477;60.65;-12.37
102580;60.57;-12.37
102683;60.45;-12.38
102786;60.40;-12.39
102889;60.22;-12.40
102992;60.15;-12.41
